time (min),male1,male2,male3,male4,male5,male6
1,1243.607780199,2046.6239525348374,565.3875088794114,4095.780063252662,1710.828446740103,1333.5345226181842
2,1222.9957950333537,2038.5035345519645,560.3595145270798,4077.838319794188,1683.2868288694879,1333.5147916452572
3,1202.3223662632988,2029.4750887303376,555.1966023882535,4059.3380038699393,1655.952188204198,1333.4260490768388
4,1181.6151267980485,2019.5510894188862,549.9057784121015,4040.2889114557192,1628.835109837387,1333.2670279357053
5,1160.899469621527,2008.7451887202892,544.4941722844212,4020.701030047937,1601.9457126127277,1333.036439755004
6,1140.1985502104787,1997.0721864560278,538.9690155024006,4000.584530848171,1575.2936477890037,1332.7329760507469
7,1119.5333018218394,1984.5479975027647,533.3376174406861,3979.9497608916695,1548.8880986061088,1332.3553098892255
8,1098.9224639755562,1971.1896166069942,527.6073397099186,3958.8072351257815,1522.7377807302898,1331.9020975477397
9,1078.382624455018,1957.015080793425,521.7855691443186,3937.1676284441787,1496.8509435547983,1331.3719802668008
10,1057.9282751130256,1942.0434294907081,515.8796897834779,3915.0417676828006,1471.2353723304484,1330.7635860916976
11,1037.571881705561,1926.294662505604,509.89705423462965,3892.440623583304,1445.8983910990548,1330.0755318010497
12,1017.3239678781896,1909.7896959836796,503.84495481474517,3869.375302729801,1420.846866401378,1329.3064249197348
13,997.193213301476,1892.5503165009075,497.7305948766066,3845.85703946459,1396.0872117298773,1328.454865813286
14,977.1865657940592,1874.5991334362684,491.5610607192934,3821.897187788587,1372.0261618694797,1327.519449860646
15,957.3093670878084,1855.959529780459,485.34329447148366,3797.50721325207,1349.6348677851634,1326.4987697019062
16,937.5654916823571,1836.6556115401165,479.0840683157649,3772.698684841275,1327.516931239465,1325.3914175573912
17,917.9574980109343,1816.712155900653,472.7899603943583,3747.4832668664144,1305.6777889782004,1324.1959876142812
18,898.4867909009129,1796.154558313634,466.46733270187264,3721.872710856566,1284.1224650508311,1322.9110784766663
19,879.153794066909,1775.00877867687,460.1223112298074,3695.878847466842,1262.855576370884,1321.5352956747606
20,873.7661313332245,1753.3012867767927,453.7607685815102,3669.5135784032213,1241.8813388516357,1320.0672542287793
21,875.6802139432913,1731.0590071634613,447.38830922631536,3642.7888683703572,1221.203574088963,1318.505581262788
22,877.4620377343151,1708.309263628492,441.01025750887067,3615.7167370476145,1200.8257165627294,1316.848918663602
23,879.110044678022,1685.0797234554818,434.6316484755483,3588.3092510985502,1180.7508213274743,1315.0959257797363
24,880.6227566025071,1661.398341611086,428.25722152567175,3560.5785162189995,1160.981572162804,1313.245282155092
25,881.9987760454452,1637.2933050427519,421.89141684244527,3532.5366692288585,1141.520290153505,1311.2956902920544
26,883.2367870223153,1612.7929772463192,415.53837450829496,3504.1958702126235,1122.368942669164,1309.2458784384303
27,884.3355557095747,1589.2925845925931,409.20193616304573,3475.568294713684,1103.5291527129552,1307.0946033925718
28,885.2939310428693,1568.7362606455715,402.88564902215666,3446.6661259872917,1085.002208609126,1304.8406533208833
29,886.1108452304903,1547.873439649623,396.5927720371303,3417.501547317129,1066.7890739987824,1302.4828505818534
30,886.7853141824323,1526.726594686402,390.3262839520289,3388.0867344002463,1048.8903981136853,1300.0200545505836
31,887.3164378555316,1505.318153987333,384.08889298946633,3358.433847805214,1031.306526297908,1297.4511644377994
32,887.7034005152908,1483.6704624057033,377.88304788692784,3328.5550255081575,1014.0375107475331,1294.7751220971854
33,887.945470915127,1461.805743866877,371.71095000002333,3298.4623755113203,997.0831214388747,1291.9909148149036
34,888.0420023938972,1439.7460648818449,365.5745661932921,3268.1679685488198,980.4428572161457,1289.0975780750798
35,887.9924328926729,1417.5132992039207,359.47564225123193,3237.683830884051,964.1159570099954,1286.0941982950424
36,887.7962848918504,1395.1290937026627,353.415716561802,3207.0219372032693,948.1014111588848,1282.9799155241028
37,887.4531652697991,1372.6148355233152,347.39613385110187,3176.1942036097485,932.3979728059097,1279.7539260996834
38,886.9627650843433,1349.9916205939942,341.41805878033483,3145.212480722848,917.004169344369,1276.4154852545928
39,886.3248592784902,1327.2802235368222,335.4824892535001,3114.0885468862875,901.9183138861075,1272.9639096693763
40,885.539306311898,1304.501069032955,329.5902693252716,3082.834101489814,887.1385167274991,1269.3985799636246
41,884.6060477196908,1281.6742046852535,323.7421016419343,3051.460758408423,872.6626967887412,1265.7189431203165
42,883.5251076002859,1258.8192754160657,317.9385593926429,3019.980039563208,858.4885930030737,1261.9245148372718
43,882.2965920340145,1235.9554994313464,312.1800977922326,2988.4033686077755,844.6137756334456,1258.0148817999525
44,880.920688434373,1213.1016457760857,306.4670651589129,2956.742064744205,831.0356574951546,1253.989703869973
45,879.3976648338074,1190.2760134998964,300.79971368905524,2925.007336672338,817.7515050639694,1249.8487161838068
46,877.7278691060455,1167.4964124455296,295.17821006563275,2893.21027667616,804.7584494503249,1245.591731156334
47,875.9117281269848,1144.7801456670989,289.60264606556086,2861.3618548509453,792.0534972212207,1241.2186403840678
48,873.9497468762611,1122.1439934790344,284.07304935315904,2829.4729134747276,779.6335410525531,1236.7294164430468
49,871.8425074816486,1099.604199131099,278.5893946614593,2797.554161527544,767.4953701957212,1232.1241145766228
50,869.5906682084877,1077.176456099333,273.15161556944673,2765.6161693619306,755.6356807434859,1227.4028742685468
51,867.1949623963828,1054.8758969775527,267.7596170812319,2733.669363527826,744.0510856811485,1222.565920697002
52,864.6561973454428,1032.7170839489725,262.41328920242154,2701.7240217551894,732.7381247103156,1217.6135660654834
53,861.9752531543838,1010.7140008127446,257.1125216897631,2669.790268097302,721.6932738335943,1212.5462108066358
54,859.1530815128102,988.8800465356522,251.8572201227918,2637.8780682378097,710.9129546897589,1207.364344655463
55,856.1907044500365,967.2280302949496,246.64732341136977,2605.9972249643033,700.3935436300059,1202.0685475885768
56,853.0892130428198,945.7701679743391,241.48282281145467,2574.157373811187,690.1313805270865,1196.6594906264243
57,849.8497660843672,926.01466253646,236.36378247426066,2542.3679788744694,680.1227773101836,1191.13793649575
58,846.4735887170121,908.6246920519657,231.29036150231798,2510.6383288009465,670.3640262195048,1185.5047401498296
59,842.9619710309381,891.3627092762262,226.2628374312379,2478.9775329541594,660.8514077756433,1179.7608491443189
60,839.3162666313174,874.2366928225999,221.2816309996233,2447.3945177593414,651.5811984597973,1173.9073038669003
61,835.5378911762532,857.2542026727101,216.3473320131436,2415.898023229478,642.5496781019843,1167.945237619194
62,831.62832088786,840.4223820944504,211.46072605381724,2384.4965996744027,633.7531369753515,1161.8758765497498
63,827.5890910388265,823.7479604152995,206.6228217336039,2353.1986045947806,625.1878825957026,1155.7005394372823
64,823.4217944167763,807.237256612079,201.83487814398168,2322.012199762627,616.8502462262338,1149.4206373235913
65,819.1280797687056,790.8961836769778,197.0984321116699,2290.945348489877,608.7365890884164,1143.037672996017
66,814.7096502277768,774.730253718581,194.10860978529598,2260.00581308639,600.8433082808126,1136.5532403195496
67,810.1682617246543,758.7445837557736,193.87609953535025,2229.201152508581,593.166842408401,1129.9690234191119
68,805.5057213856161,742.9439021616759,193.6204666813425,2198.538720199739,585.7036769258214,1123.2867957128394
69,800.7238859195447,727.3325557143061,193.3416280391315,2168.0256621229023,578.450349198622,1116.5084187975133
70,795.8246599959349,711.9145172103556,193.03950796285045,2137.668914987031,571.403453287338,1109.6358411876706
71,790.8099946159446,696.693393598357,192.71403844590895,2107.475204667017,564.5596444598256,1102.6710969102367
72,785.6818854785238,681.6724345875834,192.36515921751894,2077.4510448179067,557.9156434379075,1095.6163039568264
73,780.4423713435543,666.8545416892781,191.992817834689,2047.6027356835455,551.4682403849214,1088.4736625962378
74,775.0935323939227,652.2422776472077,191.59696976965733,2017.9363630996822,545.2142986412503,1081.2454535499478
75,769.6374885983503,637.8378762150979,191.17757849274892,1988.4577976913702,539.1507582153858,1073.934036033728
76,764.0763980767937,623.6432522392415,190.73461555066297,1959.1726942643459,533.2746390384575,1066.5418456688446
77,758.4124554701162,609.6600120054007,190.26806064021662,1930.086491389877,527.5830439905252,1059.0713922665545
78,752.6478903157329,595.8894638101284,189.77790167758556,1901.2044111823855,522.073161707214,1051.5252574899368
79,746.7849654307935,582.332628717744,189.26413486310648,1872.5314592689563,516.7422691755481,1043.906092397373
80,740.825975304486,568.9902514653872,188.72676474171521,1844.0724249497105,511.5877341280011,1036.2166148722315
81,734.7732445009075,555.8628114799358,188.16580425911818,1815.8318815477405,506.6070172439887,1028.4596069436147
82,728.6291260739396,542.9505339719448,187.58127481380367,1787.814186947235,501.79767416805487,1020.6379120032327
83,722.3959999954569,530.2534010732695,186.97320630502497,1760.023484318149,497.15735735415376,1012.7544319237265
84,716.0762715981716,517.7711629865947,186.34163717688608,1732.463703025606,492.6838177453378,1004.8121240839714
85,709.6723700343107,505.50334911668995,185.68661445868838,1705.1385597221004,488.3749062982066,996.8139983071127
86,703.1867467512988,493.44927915490547,185.00819380170137,1678.0515596202854,484.2285753613414,988.763113717248
87,696.6218739855176,481.60807409009504,184.30643951253265,1651.2059979440196,480.24287991684474,980.6625755208944
88,689.980243275173,469.9786671208935,183.58142458328484,1624.6049615551603,476.41597869392626,972.5155317194816
89,683.264363993223,458.5598144460356,182.83323071869287,1598.2513307533798,472.746135163284,964.3251697593229
90,676.4767619012662,447.35010591113553,182.06194836044654,1572.1477812461412,469.23171842076545,956.0947131255762
91,669.6199777252169,436.34797549212635,181.26767670890823,1546.2967862857809,465.8712039685268,947.8274178868867
92,662.696565753549,425.55171159728087,180.45052374244142,1520.7006189704853,462.6631744015769,939.5265691974483
93,655.7090924587982,414.95946717148325,179.61060623456996,1495.361354705759,459.6063200072541,931.195477763321
94,648.6601351430019,404.5692695881029,178.7480497691937,1470.2808738228705,456.69943928479233,922.8374762798971
95,641.5522806076476,394.37903031551053,177.86298875408502,1445.4608643505417,453.94143939172585,914.4559158474609
96,634.3881238486748,384.38655434687666,176.95556643289356,1420.9028249360397,451.3313365234531,906.0541623717976
97,627.1702667770244,374.5895493834983,176.02593489588483,1396.6080679116558,448.8682562317954,897.6355929568206
98,619.9013169651458,364.98563476340865,175.074255089637,1372.5777225024342,446.5514336879342,889.2035922961817
99,612.5838864198605,355.5723501284992,174.10069682592413,1348.8127381708466,444.38021389457134,880.761549070791
100,605.220590381898,346.34716382478285,173.10543878998945,1325.3138880939782,442.3540518516782,872.3128523591361
101,597.814046152396,337.30748103177007,172.08866854844035,1302.0817727687197,440.4725126796135,863.8608880672218
102,590.366871946601,328.4506516181886,171.050582556953,1279.116823740227,438.7352717028913,855.4090353848624
103,582.8816857749572,319.7739777224713,169.99138616799846,1256.4193074489144,437.14211449727856,846.9606632749887
104,575.3611043517408,311.2747210575471,168.9112936387706,1233.989329191047,435.6929369023698,838.5191270024807
105,567.8077420313573,302.95010994050847,167.8105281395016,1211.8268371879458,434.3877450011976,830.0877647089318
106,560.2242097723685,294.79734604868014,166.68932176232985,1189.931626758706,433.22665506786296,821.6698940395996
107,552.613114129299,286.8136109044865,165.5479155308771,1168.3033445912372,432.2098934836044,813.2688088286147
108,544.9770562722196,278.9960720923044,164.38655941067827,1146.9414931063516,431.337796621158,804.8877758483791
109,537.3186310340968,271.34188921120654,163.2055123205936,1125.8454349095707,430.610810696664,796.5300316288649
110,529.6404259858435,263.84821956811896,162.00504214531355,1105.0143973252234,430.0294915878732,788.198779352305
111,521.9450205390023,256.51222361646643,160.78542574905794,1084.4474770073764,429.5945046167875,779.8971858286067
112,514.2349850759457,249.33107014586392,159.5469489905477,1064.1436446220564,429.3066242943959,771.6283785565154
113,506.51288010747606,242.30194122878805,158.28990673931236,1044.1017495952117,429.16673402459963,763.3954428753565
114,498.7812554576699,235.42203693050314,157.01460289337814,1025.478933744416,429.1758257639364,755.2014192119162
115,491.04264947579924,228.6885797887496,155.72135039836283,1007.8653291096622,429.3349996332266,747.0493004267591
116,483.2995882751486,222.09881906990344,154.4104712679816,990.5029802501953,429.6454634767739,738.9420292639836
117,475.55458499851534,215.65003480841654,160.17132055169617,973.390160499153,430.1085323643531,730.8824959081818
118,467.81013911019716,209.3395416364186,166.2901627192198,956.5250400147038,430.725628030753,722.8735356520064
119,460.0687357142138,203.16469241035887,172.69377703094048,939.9056908305629,431.4982782472803,714.9179266775176
120,452.3328448985451,197.12288164150152,179.37693010840667,923.5300919482058,432.42811611926066,707.0183879541361
121,444.60492110512814,191.211548737013,186.33393516963855,907.3961344654767,433.51687930323465,699.177577255721
122,436.8874025253509,185.42818105820635,193.55865584392367,891.5016267362907,434.7664091372552,691.3980892989906
123,429.1827105207942,179.77031680233947,201.0445072566798,875.8442995560649,436.17864967741735,683.6824540051732
124,421.4932490689337,174.23554771414103,208.78445424701007,860.4218113675206,437.7556466335263,676.0331348864595
125,413.82140423354554,168.82152163297744,216.77100664229542,845.2317534814509,439.4995461966096,668.4525275585016
126,406.16954365952614,163.52594488130708,224.9962115765197,830.2716553070551,441.41259375082757,660.9429583798798
127,398.54001609185207,158.3465844997608,233.4516429010665,815.5389895864186,443.49713246220495,653.5066832191375
128,390.93515091839606,153.28127033387065,242.12838779755202,801.0311776277243,445.75560173653827,646.1458863496653
129,383.35725773631435,149.19788545845182,251.0170307610781,786.7455945317645,448.1905355387891,638.8626794723908
130,375.80862594172834,147.55813939099983,260.107635178366,772.67957440634,450.8045605662739,631.6591008659126
131,368.29152434240643,147.65670709642637,269.38972277793806,758.8304155631301,453.60039426800114,624.5371146634093
132,360.80820079317704,147.80940809940768,278.85225127835014,745.1953856916518,456.5808427025996,617.4986102553536
133,353.36088185377537,148.01564784408342,288.4835906050086,731.7717270049179,459.7487982273955,610.5454018167455
134,345.95177246885885,148.27491640010567,298.27149808602155,718.5566613514403,463.10723701138204,603.6792279572893
135,338.583055669899,148.5867903907458,308.20309307266405,705.5473952882646,466.6592163650163,596.9017514926678
136,331.25689229867805,148.95093479897903,318.26483146020786,692.7411251097326,470.4078718800502,590.2145593347651
137,323.9754207521152,149.36710465408515,328.4424806101106,680.1350418267175,474.35641437288473,583.6191624984351
138,316.74075674814395,149.8351466014586,338.72109519488663,667.7263360911257,478.5081266252842,577.1169962221581
139,309.55499311236775,150.35500035845382,349.0849945025061,655.5122030604965,482.8663599166463,570.7094201996636
140,302.42019958522326,150.9267000592233,359.5177417480522,643.4898471975824,487.43453034247295,564.3977189193769
141,295.3384226493773,151.55037549158646,370.00212594677623,631.6564869998623,492.2161149141047,558.1831021083244
142,288.3116853770888,152.2262532290724,380.5201469048225,620.0093596539843,497.21464743531425,552.0667052768945
143,281.34198729726097,152.95465766131775,391.05300388195127,608.5457256102148,502.433714151847,546.0495903607
144,274.4313042819175,153.73601192606816,401.58108847472835,597.2628730720334,507.87694917060946,540.132746455557
145,267.5815884518228,154.57083874604191,412.0839822590328,586.158122396095,513.5480296457654,534.3170906414535
146,260.79476810098265,155.4597611739281,422.5404597174427,575.228830397855,519.4506707296564,528.6034688912283
147,254.07274763973905,156.40350324878594,432.9284969601733,564.4723945582404,525.5886202871295,522.9926570595115
148,247.41740755618747,157.40289056707923,443.22528672772296,553.8862571268418,531.9656533725323,517.4853619474032
149,240.8306043956338,159.75613773491816,453.407260139185,543.4679091171922,538.5855664693738,512.0822224382143
150,234.31417075780297,162.83081073776015,463.4501156221785,533.2148941898057,545.4521714933907,506.78381069951354
151,227.8699153115117,165.9882864241135,473.3288554283387,523.1248124187235,555.393211886105,501.5906334466812
152,221.49962282650705,169.22955797758823,483.0178301020706,513.1953239374733,579.1333625313382,496.503133263059
153,215.2050542221701,172.5557045510712,492.49079122951997,503.42415246041026,603.1546530683644,491.5216899717891
154,208.9879466327772,175.96789183077223,501.72095274914733,493.8090886755485,627.4335565023623,486.6466220543742
155,202.85001348900013,179.4673725341234,510.6810610546094,484.3479935051139,651.947537116816,481.8781881110105
156,196.79294461532166,183.05548684268473,519.3434740645101,475.03880123016694,676.6752336483711,477.2165883577425
157,190.81840634303236,186.73366277111265,527.6802493717511,465.8795224757718,701.5966201484046,472.6619661554915
158,184.92804163846742,190.50341647315767,535.6632415173951,456.8682470533353,726.6931408093062,468.21440956608313
159,179.12347024612615,194.36635248554097,543.2642083600756,448.0031466568579,751.9478152465932,463.8739529304446
160,173.40628884631198,198.324163910447,550.4549264318565,439.28247740999547,777.3453110063775,459.6405784641838
161,167.77807122691604,202.37863253725706,557.2073150852532,430.7045822609762,802.8719804104179,455.51421786590174
162,162.24036846895606,206.53162890400347,563.493569143915,422.2678932225545,828.515859255997,451.4947539336424
163,156.79470914546638,210.7851122989064,569.2862996716809,413.97093345435377,854.2666253522285,447.5820221850254
164,151.44259953333062,215.14113070221092,574.5586823717508,405.81231918510224,880.1155153938508,443.77581247673896
165,146.18552383761963,219.60182066839113,579.2846130203475,397.79076147241756,906.0551992432022,440.0758706191898
166,141.02494442800497,224.16940714866,583.4388692282156,389.9050677979882,932.0796113045392,436.48189998228685
167,135.9623020867759,228.8462032535555,586.9972777097815,382.1541434961394,958.1837393252074,432.9935630884978
168,138.24866578736237,233.63460995522968,589.9368861248865,374.5369930139655,984.3633716373249,429.61048318947496
169,140.4710863895925,238.53711572892288,592.2361384432218,367.052721001385,1010.6148045527976,426.33224582277654
170,142.59471433022148,243.5562961329293,593.875052668412,359.70053322964844,1036.9345123340179,423.1584003453698
171,144.61574206327325,248.69481332623073,594.8353996488848,352.47973733702025,1063.3187828724062,420.08846144083435
172,146.5311787340223,253.95541552280832,595.1008815980215,345.38974340054716,1089.7633229062315,417.1219105973968
173,148.33885818441135,259.34093638148573,594.6573088485515,338.43006433301116,1116.2628372868844,414.2581975541516
174,150.03743877119234,264.8542943300245,593.4927732776982,331.60031610435914,1142.8105874476212,411.4967417130488
175,151.62639530183264,270.49849182202655,591.5978167622544,324.9002177871154,1169.397934829445,408.8369335144799
